x,y,id
20.00000000000000,0.0000000000000000,0
19.95191795070000,0.7642256050576215,1
19.90383590140000,1.528451210115243,2
19.85575385210000,2.292676815172847,3
19.73898171215532,3.048227345071584,4
19.59549675918215,3.800404234630729,5
19.45201180620898,4.552581124189876,6
19.26754514182485,5.294234206037290,7
19.03091993564497,6.022493350797046,8
18.79429472946510,6.750752495556801,9
18.54336375724941,7.473347722030704,10
18.21732751334576,8.166207377503873,11
17.89129126944210,8.859067032977043,12
17.56525502553844,9.551926688450214,13
17.16506483496713,10.20402198884541,14
16.75476274257748,10.85055851354817,15
16.34446065018786,11.49709503825090,16
15.88747939830841,12.10971518260645,17
15.39937870676908,12.69972440673053,18
14.91127801522974,13.28973363085463,19
14.40074615943735,13.85867939925753,20
13.84254807960715,14.38286532425297,21
13.28434999977698,14.90705124924838,22
12.72370009306036,15.42827328240032,23
12.10420634106920,15.87836191130856,24
11.48471258907803,16.32845054021680,25
10.86521883708689,16.77853916912502,26
10.20656397284532,17.16692166212097,27
9.535542441577336,17.53581800693408,28
8.864520910309349,17.90471435174719,29
8.173845826125428,18.23184618135790,30
7.461879392949208,18.51373311949936,31
6.749912959772988,18.79562005764082,32
6.032003841748661,19.05921622020411,33
5.290323984331892,19.24964928045473,34
4.548644126915124,19.44008234070534,35
3.806964269498357,19.63051540095595,36
3.048704798628516,19.73404179549784,37
2.289003622241016,19.83001108867376,38
1.529302445853499,19.92598038184967,39
0.7657378185085363,19.96052932739300,40
1.776356839400250e-14,19.96052932739300,41
-0.7657378185085363,19.96052932739300,42
-1.529302445853482,19.92597933513398,43
-2.289003622240981,19.83000713441447,44
-3.048704798628481,19.73403493369495,45
-3.806964269498357,19.63050609681644,46
-4.548644126915073,19.44007594410944,47
-5.290323984331858,19.24964579140242,48
-6.032003841748643,19.05921563869540,49
-6.749912959772988,18.79562005764082,50
-7.461879392949191,18.51373311949937,51
-8.173845826125394,18.23184618135791,52
-8.864520910309349,17.90471435174719,53
-9.535542441577352,17.53581800693406,54
-10.20656397284532,17.16692166212097,55
-10.86521883708686,16.77853847131450,56
-11.48471258907803,16.32844693486236,57
-12.10420634106918,15.87835539841024,58
-12.72370009306032,15.42826386195811,59
-13.28434999977696,14.90704450374655,60
-13.84254807960715,14.38286148629502,61
-14.40074615943735,13.85867846884348,62
-14.91127801522974,13.28973165372498,63
-15.39937870676906,12.69971952205731,64
-15.88747939830840,12.10970739038962,65
-16.34446065018786,11.49708666452534,66
-16.75476274257746,10.85055304736624,67
-17.16506483496711,10.20401943020707,68
-17.56525502553843,9.551926688450230,69
-17.89129126944210,8.859067032977043,70
-18.21732751334575,8.166207377503889,71
-18.54336375724940,7.473347722030736,72
-18.79429472946509,6.750752495556818,73
-19.03091993564497,6.022493350797046,74
-19.26754514182485,5.294234206037307,75
-19.45201180620898,4.552581124189876,76
-19.59549675918214,3.800404234630747,77
-19.73898171215532,3.048227345071584,78
-19.85575385210000,2.292676815172847,79
-19.90383590140000,1.528451210115243,80
-19.95191795070000,0.7642256050576394,81
-20.00000000000000,0.0000000000000000,82
-19.95191795070000,-0.7642286579783536,83
-19.90383590140000,-1.528457315956707,84
-19.85575385210000,-2.292685973935060,85
-19.73898171215532,-3.048235160548658,86
-19.59549675918215,-3.800408997187073,87
-19.45201180620898,-4.552582833825488,88
-19.26754514182485,-5.294234206037292,89
-19.03091993564497,-6.022493350797047,90
-18.79429472946510,-6.750752495556805,91
-18.54336375724941,-7.473348233758365,92
-18.21732751334576,-8.166211087529399,93
-17.89129126944210,-8.859073941300437,94
-17.56525502553844,-9.551936795071473,95
-17.16506483496712,-10.20402966476029,96
-16.75476274257749,-10.85056299116517,97
-16.34446065018786,-11.49709631757005,98
-15.88747939830840,-12.10971518260645,99
-15.39937870676907,-12.69972440673054,100
-14.91127801522974,-13.28973363085462,101
-14.40074615943734,-13.85867939925754,102
-13.84254807960716,-14.38286532425296,103
-13.28434999977698,-14.90705124924839,104
-12.72369996512843,-15.42827328240033,105
-12.10420301483910,-15.87836191130856,106
-11.48470606454977,-16.32845054021679,107
-10.86520911426044,-16.77853916912502,108
-10.20655370340080,-17.16692166212096,109
-9.535532462887396,-17.53581800693407,110
-8.864511222373983,-17.90471435174718,111
-8.173837685003345,-18.23184618135790,112
-7.461874159370723,-18.51373311949936,113
-6.749910633738098,-18.79562005764083,114
-6.032003245702192,-19.05921622020412,115
-5.290320408053104,-19.24964928045473,116
-4.548637570404023,-19.44008234070534,117
-3.806954732754933,-19.63051540095595,118
-3.048697765280239,-19.73404179549784,119
-2.288999569125052,-19.83001108867376,120
-1.529301372969869,-19.92598038184967,121
-0.7657378185085407,-19.96052932739300,122
-4.440892098500626e-15,-19.96052932739300,123
0.7657378185085363,-19.96052932739300,124
1.529302445853504,-19.92597933513398,125
2.289003622240994,-19.83000713441447,126
3.048704798628494,-19.73403493369495,127
3.806964269498331,-19.63050609681644,128
4.548644126915103,-19.44007594410943,129
5.290323984331870,-19.24964579140241,130
6.032003841748643,-19.05921563869540,131
6.749912959772972,-18.79562005764083,132
7.461879392949195,-18.51373311949936,133
8.173845826125410,-18.23184618135791,134
8.864520910309341,-17.90471435174719,135
9.535542441577336,-17.53581800693408,136
10.20656397284532,-17.16692166212097,137
10.86521883708687,-16.77853847131449,138
11.48471258907803,-16.32844693486236,139
12.10420634106919,-15.87835539841022,140
12.72370009306035,-15.42826386195809,141
13.28434999977697,-14.90704450374654,142
13.84254807960715,-14.38286148629502,143
14.40074615943734,-13.85867846884349,144
14.91127801522974,-13.28973165372498,145
15.39937870676907,-12.69971952205730,146
15.88747939830840,-12.10970739038962,147
16.34446181320529,-11.49708666452535,148
16.75476681313852,-10.85055304736620,149
17.16507181307175,-10.20401943020706,150
17.56526421337620,-9.551926688450230,151
17.89129754973626,-8.859067032977059,152
18.21733088609633,-8.166207377503881,153
18.54336422245638,-7.473347722030720,154
18.79429472946509,-6.750749931103138,155
19.03091993564497,-6.022487733422356,156
19.26754514182485,-5.294225535741546,157
19.45201180620898,-4.552572820244657,158
19.59549675918215,-3.800398983606556,159
19.73898171215532,-3.048225146968455,160
19.85575385210000,-2.292676815172873,161
19.90383590140000,-1.528451210115243,162
19.95191795070000,-0.7642256050576305,163
0.0000000000000000,0.0000000000000000,164
0.0004427346676751775,0.002460484914409871,165
0.0009240388718906818,0.005135318895522781,166
0.002027996670775381,0.007862601630618244,167
0.003732057868973646,0.01057700805081221,168
0.005937817251091093,0.01326759148827751,169
0.008651279065227146,0.01589303636730661,170
0.01184208045571502,0.01845847267796354,171
0.01550742208330981,0.02095816503942530,172
0.01964405172953412,0.02340048274336675,173
0.02425976180866218,0.02578933480542115,174
0.02936747285753883,0.02812882736561467,175
0.03498394656446979,0.03042347597056558,176
0.04113081920708319,0.03267308918284396,177
0.04783110562955175,0.03487913936816256,178
0.05511040512442949,0.03704017053710671,179
0.06299565860887343,0.03915324622468128,180
0.07151469083498557,0.04121360486203512,181
0.08069524140971975,0.04321654781480477,182
0.09056504406740368,0.04515476795656112,183
0.1011508076807303,0.04702051371649987,184
0.1124778126476193,0.04880444531431158,185
0.1245690847483771,0.05049696311280286,186
0.1374448948550168,0.05208732262868053,187
0.1511219750134453,0.05356442610459182,188
0.1656128212146953,0.05491656903039008,189
0.1809249422291764,0.05613248285051262,190
0.1970602213026680,0.05720063766998718,191
0.2140141832654562,0.05811032570815660,192
0.2317754172709876,0.05885153041965141,193
0.2503250306242245,0.05941558505186320,194
0.2696362437776511,0.05979515852467869,195
0.2896740908065431,0.05998470344878197,196
0.3103953205029068,0.05998066259920054,197
0.3317483950044012,0.05978170122586893,198
0.3536737595471074,0.05938874329681164,199
0.3761043158457168,0.05880514935859987,200
0.3989660111419634,0.05803653009934782,201
0.4221787095780457,0.05709075598546712,202
0.4456572072274746,0.05597779938099665,203
0.4693124030940611,0.05470942300106307,204
0.4930525964196746,0.05329892118800329,205
0.5167848680454782,0.05176074526250803,206
0.5404164855505578,0.05011031086833802,207
0.5638563758446214,0.04836354050646498,208
0.5870164114319917,0.04653653533750571,209
0.6098127451599872,0.04464530685108623,210
0.6321669360369914,0.04270556178141494,211
0.6540069264110646,0.04073238210504949,212
0.6752678372714851,0.03874004619089697,213
0.6958925736343555,0.03674199268880568,214
0.7158321990573211,0.03475055326488645,215
0.7350461355433283,0.03277701208564763,216
0.7535021493395924,0.03083145872662608,217
0.7711761867760923,0.02892289883533425,218
0.7880520309742998,0.02705911995273880,219
0.8041208555728429,0.02524679411169117,220
0.8193806719512384,0.02349151990280357,221
0.8338357041868825,0.02179787348817058,222
0.8474957095240201,0.02016939985898123,223
0.8603752970440443,0.01860878837769058,224
0.8724932209477876,0.01711785307408165,225
0.8838717076531262,0.01569766929733122,226
0.8945357964427012,0.01434857915935154,227
0.9045127432685455,0.01307037860360324,228
0.9138314471011447,0.01186229770218996,229
0.9225219421660158,0.01072308286776036,230
0.9306149549875635,0.009651145371809467,231
0.9381414967679971,0.008644547125961504,232
0.9451325223627520,0.007701075222483401,233
0.9516186443208994,0.006818330593416354,234
0.9576298927366933,0.005993787505663733,235
0.9631955123838737,0.005224792106267567,236
0.9683438084059676,0.004508613810228585,237
0.9731020358451782,0.003842544268587139,238
0.9774962952126542,0.003223806116823209,239
0.9815514946996549,0.002649735016841728,240
0.9852912954899031,0.002117667682649262,241
0.9887381035378183,0.001625014501711555,242
0.9919130722634736,0.001169285965277531,243
0.9948361091923020,0.0007480493846556965,244
0.9975259116761542,0.0003590082006097834,245
1.000000000000001,-1.332267629550188e-16,246
0.9975259116761542,-0.0003590082006097834,247
0.9948361091923020,-0.0007480493846556965,248
0.9919130722634736,-0.001169285965277531,249
0.9887381035378183,-0.001625014501711555,250
0.9852912954899031,-0.002117667682649262,251
0.9815514946996549,-0.002649735016841728,252
0.9774962952126542,-0.003223806116823209,253
0.9731020358451782,-0.003842544268587139,254
0.9683438084059676,-0.004508613810228585,255
0.9631955123838737,-0.005224792106267567,256
0.9576298927366933,-0.005993787505663733,257
0.9516186443208994,-0.006818330593416354,258
0.9451325223627520,-0.007701075222483401,259
0.9381414967679971,-0.008644547125961504,260
0.9306149549875635,-0.009651145371809467,261
0.9225219421660158,-0.01072308286776036,262
0.9138314471011447,-0.01186229770218996,263
0.9045127432685455,-0.01307037860360324,264
0.8945357964427012,-0.01434857915935154,265
0.8838717076531262,-0.01569766929733122,266
0.8724932209477876,-0.01711785307408165,267
0.8603752970440443,-0.01860878837769058,268
0.8474957095240201,-0.02016939985898123,269
0.8338357041868825,-0.02179787348817058,270
0.8193806719512384,-0.02349151990280357,271
0.8041208555728429,-0.02524679411169117,272
0.7880520309742998,-0.02705911995273880,273
0.7711761867760923,-0.02892289883533425,274
0.7535021493395924,-0.03083145872662608,275
0.7350461355433283,-0.03277701208564763,276
0.7158321990573211,-0.03475055326488645,277
0.6958925736343555,-0.03674199268880568,278
0.6752678372714851,-0.03874004619089697,279
0.6540069264110646,-0.04073238210504949,280
0.6321669360369914,-0.04270556178141494,281
0.6098127451599872,-0.04464530685108623,282
0.5870164114319917,-0.04653653533750571,283
0.5638563758446214,-0.04836354050646498,284
0.5404164855505578,-0.05011031086833802,285
0.5167848680454782,-0.05176074526250803,286
0.4930525964196746,-0.05329892118800329,287
0.4693124030940611,-0.05470942300106307,288
0.4456572072274746,-0.05597779938099665,289
0.4221787095780457,-0.05709075598546712,290
0.3989660111419634,-0.05803653009934782,291
0.3761043158457168,-0.05880514935859987,292
0.3536737595471074,-0.05938874329681164,293
0.3317483950044012,-0.05978170122586893,294
0.3103953205029068,-0.05998066259920054,295
0.2896740908065431,-0.05998470344878197,296
0.2696362437776511,-0.05979515852467869,297
0.2503250306242245,-0.05941558505186320,298
0.2317754172709876,-0.05885153041965141,299
0.2140141832654562,-0.05811032570815660,300
0.1970602213026680,-0.05720063766998718,301
0.1809249422291764,-0.05613248285051262,302
0.1656128212146953,-0.05491656903039008,303
0.1511219750134453,-0.05356442610459182,304
0.1374448948550168,-0.05208732262868053,305
0.1245690847483771,-0.05049696311280286,306
0.1124778126476193,-0.04880444531431158,307
0.1011508076807303,-0.04702051371649987,308
0.09056504406740368,-0.04515476795656112,309
0.08069524140971975,-0.04321654781480477,310
0.07151469083498557,-0.04121360486203512,311
0.06299565860887343,-0.03915324622468128,312
0.05511040512442949,-0.03704017053710671,313
0.04783110562955175,-0.03487913936816256,314
0.04113081920708319,-0.03267308918284396,315
0.03498394656446979,-0.03042347597056558,316
0.02936747285753883,-0.02812882736561467,317
0.02425976180866218,-0.02578933480542115,318
0.01964405172953412,-0.02340048274336675,319
0.01550742208330981,-0.02095816503942530,320
0.01184208045571502,-0.01845847267796354,321
0.008651279065227146,-0.01589303636730661,322
0.005937817251091093,-0.01326759148827751,323
0.003732057868973646,-0.01057700805081221,324
0.002027996670775381,-0.007862601630618244,325
0.0009240388718906818,-0.005135318895522781,326
0.0004427346676751775,-0.002460484914409871,327
1.578650405969109,-0.006347838690432420,328
1.647843416156162,-0.03095757337367394,329
1.638548614850720,0.03002048697037374,330
1.815776802910078,0.5253373012086658,331
1.763326826174680,0.4221562416501136,332
1.878773033212211,0.3560241568569156,333
1.951077305893495,0.4655871120621699,334
1.711080497638276,0.3406677381460305,335
1.809678487456390,0.2717070936682965,336
1.658278796998616,0.2712874919510426,337
1.738577550668819,0.1975851802985946,338
1.120521905938232,0.03500650089857008,339
1.106535725756161,0.04715566505265232,340
1.105900663883805,0.03613797360805327,341
1.564071083172530,-0.5898520252045563,342
1.686334565999178,-0.5660054844137469,343
1.650704766040423,-0.4704549200718888,344
1.542463884547332,-0.5027071839878803,345
-1.811181961872819,5.967482518085651,346
-2.247444124393115,5.796057672918588,347
-1.812997491212988,5.314755968464582,348
1.081811824507009,-0.01220798901918908,349
1.090855411133528,-0.01741882072246504,350
1.099208948708778,-0.005997255078965773,351
1.084615970012674,-0.001469667871362365,352
0.6619133143144823,1.036467113788206,353
0.6954772984487130,1.184285254623640,354
0.5748223857265373,1.203543050122184,355
0.5626823383200008,1.051279920069970,356
0.7837209563931293,0.8561091421260945,357
0.8391475320840609,0.9693475698769920,358
0.7541375054947169,1.008103263600676,359
0.7118285606867470,0.8856831773472240,360
8.434640135634551,-1.345401531936718,361
8.480982981419013,-0.7648958579455503,362
7.802034805321926,-0.7148342896498516,363
7.758036047181570,-1.443898979559331,364
-8.327577402111899,1.591594530664043,365
-8.485358428041444,0.9078389809274354,366
-7.670766603296430,0.8268098772223758,367
-7.559090153873358,1.439259101492015,368
7.370168798601045,6.747022710682749,369
6.803388357327465,6.232126121196788,370
7.166523116669552,5.834032685523373,371
7.759578086647584,6.306376143026164,372
0.9965714321462578,-0.2887084013823182,373
1.034857202425552,-0.3065180047414428,374
1.041822210686894,-0.2811797932358656,375
1.004775375664104,-0.2664002393180330,376
-0.06264712848638611,-0.01593370971987883,377
-0.06114104999574892,-0.008153294983918131,378
-0.06970888392571063,-0.007041274220319934,379
-0.07237090749521585,-0.01443307799096287,380
-9.043782626072264,-8.333358578371007,381
-8.556800267911809,-8.845274925832264,382
-8.044531126440775,-8.258081902041489,383
-8.503306048963678,-7.777281906654663,384
9.043806612027172,8.333371207365502,385
8.556798895727928,8.845276194396577,386
8.044528901181453,8.258084009089149,387
8.503305064791800,7.777283082375628,388
1.007359800648902,-0.01926693248891319,389
1.009814616913528,-0.02324950177182520,390
1.014450692406439,-0.02143171114569877,391
1.010737525324361,-0.01828274206995787,392
12.26193406048646,-7.969380038973618,393
11.64575245914292,-7.592838535237872,394
11.31647937851172,-8.291060488914955,395
11.96139952452966,-8.485393397975052,396
10.90115351757684,-9.811502225832427,397
11.28938314376177,-9.308168100180334,398
10.72575079236523,-8.840259843804100,399
10.28261140075026,-9.540345047968335,400
0.01427938523898741,0.1153790532033930,401
0.02485180310417820,0.1062250595880180,402
0.03260320629584092,0.1143124256585238,403
0.02149568660207041,0.1244523942222783,404
-12.31292911950266,-7.963064215193523,405
-11.97070406868652,-8.470732120797603,406
-11.32985819921023,-8.274309958332534,407
-11.72570895953824,-7.567146299982173,408
-7.005411642433571,-12.82658179025244,409
-6.474627046475695,-13.15159611398538,410
-6.010957795720479,-12.67352667799284,411
-6.661560350470564,-12.20300437470413,412
0.4502582609530675,-0.2441227433063963,413
0.4231521077629771,-0.2433566326905622,414
0.4214975356500866,-0.2791970233935602,415
0.4498918878557309,-0.2803963216112338,416
0.2272853502255800,-0.2065985382666162,417
0.2067213478340377,-0.1992616379077864,418
0.1972944094801873,-0.2241733050595635,419
0.2183192929373368,-0.2330582464535774,420
1.001733119775963,0.01406791433161981,421
1.004779094142842,0.01281186273988808,422
1.005604277982149,0.01577812787451905,423
1.002238999468449,0.01713605017313949,424
0.5548546680702027,-0.2047989771647721,425
0.5514953581418982,-0.1751107656535007,426
0.5262957528849814,-0.1776449672391413,427
0.5289287135657377,-0.2076352277763230,428
0.8533983016269745,-0.1342712932804799,429
0.8669466111689905,-0.1259810303712271,430
0.8579275608668107,-0.1095071418936044,431
0.8441474599051084,-0.1166146081195339,432
0.9534375048329828,-0.05268001619862610,433
0.9488243769059503,-0.04500361751955492,434
0.9419808136895226,-0.04883613597611534,435
0.9467831386615955,-0.05708568923229356,436
-0.004922321943110286,0.01590271848767784,437
-0.002693612643381856,0.02013186805893680,438
-0.006052461113611271,0.02214604102314974,439
-0.008057924623543313,0.01755464783443994,440
0.5763846189713850,-0.1719802850905522,441
0.5730012705336275,-0.1448621083654119,442
0.5486337231965216,-0.1476545433498240,443
0.03352171501147379,0.09715704819814210,444
0.04032563850632422,0.08854979760921708,445
0.04864964763571340,0.09489516732626133,446
0.04165029229183620,0.1043492583778662,447
0.6301292672074608,-0.1920658219676999,448
0.6248289619598322,-0.1640388621992374,449
0.6008579103126497,-0.1682779413822841,450
0.6055695076573487,-0.1970010277019148,451
0.001019127082646575,0.01252878427940370,452
0.003269598442161834,0.01572499904169642,453
0.0003967653059796733,0.01800383457443371,454
-0.001860625416704902,0.01429426944016325,455
0.2665558502009012,0.1197503940158169,456
0.2683382965835422,0.09933433959776998,457
0.2888029279271089,0.1009507471043920,458
0.2873030663420558,0.1221272626722015,459
0.9519844347460276,-0.03463955644532438,460
0.9494444763359389,-0.02790620968878610,461
0.9427353565177981,-0.03041973269748567,462
0.9454402188906167,-0.03769319230631162,463
0.4003309386620462,0.1043715470331865,464
0.3998225781869865,0.08107389629728726,465
0.4232076275973450,0.08043650290806234,466
0.4239746449303764,0.1040457818091230,467
0.2693498364561677,0.07946991733570496,468
0.2895796904995837,0.08036447160836449,469
0.03889875313863984,0.03909616342369578,470
0.04564353466108721,0.04186850469031840,471
